Time[s],Anterior(+)/posterior(-) tilt,Lateral tilt left(-)/right(+),Rotation left(+)/right(-)
0,15.925,-1.476,3.6,
0.033,17.824,-1.421,3.9,
0.067,20.179,-1.288,4.256,
0.1,22.007,-1.094,4.548,
0.133,23.334,-0.855,4.601,
0.167,24.418,-0.626,4.47,
0.2,25.585,-0.482,4.283,
0.233,26.389,-0.369,3.984,
0.267,26.593,-0.333,3.561,
0.3,26.907,-0.274,3.06,
0.333,27.216,-0.248,2.706,
0.367,27.393,-0.279,2.562,
0.4,27.502,-0.276,2.502,
0.433,27.451,-0.243,2.44,
0.467,27.29,-0.297,2.376,
0.5,27.107,-0.456,2.422,
0.533,27.039,-0.585,2.533,
0.567,26.914,-0.703,2.729,
0.6,26.856,-0.79,2.931,
0.633,26.796,-0.9,3.087,
0.667,26.763,-1.009,3.211,
0.7,26.796,-1.107,3.315,
0.733,26.712,-1.166,3.438,
0.767,26.616,-1.179,3.567,
0.8,26.522,-1.169,3.574,
0.833,26.428,-1.145,3.499,
0.867,26.254,-1.127,3.431,
0.9,26.079,-1.106,3.379,
0.933,26.064,-1.097,3.311,
0.967,26.032,-1.08,3.256,
1,25.965,-1.049,3.214,
1.033,25.863,-0.99,3.187,
1.067,25.842,-0.935,3.191,
1.1,25.833,-0.908,3.205,
1.133,25.735,-0.873,3.295,
1.167,25.689,-0.816,3.343,
1.2,25.768,-0.715,3.423,
1.233,25.816,-0.67,3.435,
1.267,25.829,-0.656,3.415,
1.3,25.834,-0.633,3.366,
1.333,25.904,-0.597,3.31,
1.367,26.031,-0.575,3.269,
1.4,26.102,-0.567,3.232,
1.433,26.172,-0.555,3.18,
1.467,26.324,-0.544,3.098,
1.5,26.541,-0.535,3.012,
1.533,26.812,-0.538,2.943,
1.567,27.104,-0.572,2.881,
1.6,27.45,-0.66,2.839,
1.633,27.812,-0.76,2.846,
1.667,28.072,-0.802,2.917,
1.7,28.477,-0.78,2.969,
1.733,29.09,-0.811,3.008,
1.767,29.428,-0.937,3.065,
1.8,29.524,-1.083,3.116,
1.833,29.705,-1.335,3.223,
1.867,29.923,-1.655,3.321,
1.9,29.998,-1.929,3.396,
1.933,29.766,-2.152,3.336,
1.967,29.487,-2.391,3.27,
2,28.659,-2.718,3.066,
2.033,27.313,-2.959,2.79,
2.067,25.205,-3.035,2.692,
2.1,22.866,-3.068,2.45,
2.133,20.36,-3.198,2.239,
2.167,18.047,-3.386,1.869,
2.2,15.628,-3.446,1.667,
2.233,13.54,-3.34,1.646,
2.267,11.746,-3.239,1.49,
2.3,10.293,-3.178,1.266,
2.333,8.964,-3.096,0.864,
2.367,7.789,-2.974,0.232,
2.4,6.587,-2.709,-0.142,
2.433,5.339,-2.5,-0.419,
2.467,4.031,-2.352,-0.788,
2.5,2.868,-2.219,-1.111,
2.533,1.77,-2.077,-1.558,
2.567,0.578,-1.933,-1.986,
2.6,-0.727,-1.788,-1.88,
2.633,-2.006,-1.454,-1.578,
2.667,-3.035,-1.174,-1.234,
2.7,-3.888,-0.977,-0.921,
2.733,-4.944,-0.681,-0.74,
2.767,-6.072,-0.36,-0.58,
2.8,-7.059,-0.067,-0.527,
2.833,-8.056,0.147,-0.843,
2.867,-8.88,0.484,-1.244,
2.9,-9.794,0.88,-1.375,
2.933,-10.845,1.106,-1.419,
2.967,-12.169,1.283,-1.428,
3,-13.691,1.458,-1.588,
3.033,-15.203,1.655,-1.696,
3.067,-16.682,1.724,-1.794,
3.1,-17.881,1.642,-2.061,
3.133,-19.027,1.458,-2.423,
3.167,-19.911,1.027,-2.705,
3.2,-20.352,0.468,-2.725,
3.233,-20.642,-0.077,-2.58,
3.267,-20.927,-0.505,-2.27,
3.3,-20.943,-0.825,-1.952,
3.333,-20.624,-0.986,-1.73,
3.367,-20.219,-1.034,-1.636,
3.4,-20.021,-1.055,-1.629,
3.433,-19.955,-1.028,-1.697,
3.467,-20.006,-0.982,-1.785,
3.5,-20.128,-0.955,-1.821,
3.533,-20.271,-0.905,-1.908,
3.567,-20.325,-0.874,-1.938,
3.6,-20.39,-0.841,-2,
3.633,-20.416,-0.83,-2.104,
3.667,-20.417,-0.837,-2.186,
3.7,-20.376,-0.844,-2.126,
3.733,-20.308,-0.831,-2.104,
3.767,-20.203,-0.819,-2.041,
3.8,-20.082,-0.813,-2.014,
3.833,-19.998,-0.82,-1.945,
3.867,-19.995,-0.834,-1.907,
3.9,-20.029,-0.821,-1.914,
3.933,-20.066,-0.775,-1.947,
3.967,-20.06,-0.77,-1.952,
4,-20.008,-0.795,-1.961,
4.033,-19.937,-0.804,-1.943,
4.067,-19.851,-0.79,-1.85,
4.1,-19.751,-0.773,-1.691,
4.133,-19.614,-0.756,-1.484,
4.167,-19.477,-0.791,-1.289,
4.2,-19.288,-0.808,-1.142,
4.233,-19.094,-0.803,-1.01,
4.267,-18.797,-0.832,-0.836,
4.3,-18.302,-0.868,-0.696,
4.333,-17.605,-0.895,-0.653,
4.367,-16.533,-0.911,-0.586,
4.4,-15.137,-0.887,-0.509,
4.433,-13.476,-0.77,-0.53,
4.467,-11.515,-0.613,-0.565,
4.5,-9.177,-0.417,-0.567,
4.533,-6.414,-0.144,-0.426,
4.567,-3.744,0.158,-0.322,
4.6,-1.217,0.573,-0.394,
4.633,0.967,0.882,-0.26,
4.667,2.258,1.074,-0.078,
4.7,3.383,1.306,0.075,
4.733,4.826,1.501,-0.007,
4.767,5.579,1.405,-0.144,
4.8,5.683,1.315,-0.266,
4.833,5.697,1.274,-0.318,
4.867,5.819,1.244,-0.328,
4.9,5.69,1.074,-0.441,
4.933,5.662,0.895,-0.703,
4.967,5.576,0.795,-1.066,
5,5.531,0.805,-1.428,
5.033,5.539,0.911,-1.7,
5.067,5.473,1.044,-1.732,
5.1,5.268,1.17,-1.589,
5.133,5.006,1.253,-1.347,
5.167,4.767,1.285,-1.058,
5.2,4.513,1.264,-0.709,
5.233,4.339,1.228,-0.35,
5.267,4.252,1.213,-0.088,
5.3,4.264,1.255,0.045,
5.333,4.254,1.315,0.096,
5.367,4.068,1.381,0.123,
5.4,4.027,1.423,0.271,
5.433,3.968,1.465,0.361,
5.467,3.904,1.515,0.411,
5.5,3.827,1.561,0.479,
5.533,3.731,1.581,0.512,
5.567,3.658,1.573,0.513,
5.6,3.595,1.54,0.486,
5.633,3.533,1.504,0.453,
5.667,3.541,1.465,0.429,
5.7,3.561,1.44,0.365,
5.733,3.587,1.432,0.27,
5.767,3.644,1.407,0.184,
5.8,3.724,1.382,0.084,
5.833,3.801,1.35,0.014,
5.867,3.895,1.301,-0.004,
5.9,3.986,1.26,-0.009,
5.933,4.077,1.219,0.005,
5.967,4.177,1.161,0.036,
6,4.288,1.106,0.044,
6.033,4.435,1.079,0.021,
6.067,4.68,1.071,-0.063,
6.1,5.051,1.102,-0.217,
6.133,5.441,1.122,-0.319,
6.167,5.762,1.146,-0.548,
6.2,6.346,1.201,-0.732,
6.233,7.153,1.196,-0.865,
6.267,8.153,1.122,-1.014,
6.3,9.357,1.035,-1.015,
6.333,10.923,0.805,-0.732,
6.367,12.876,0.452,-0.429,
6.4,14.935,0.051,-0.294,
6.433,17.019,-0.357,-0.159,
6.467,19.027,-0.652,-0.081,
6.5,21.131,-0.776,-0.103,
6.533,23.518,-0.856,-0.088,
6.567,25.607,-0.965,0.056,
6.6,27.023,-0.979,0.139,
6.633,28.202,-0.91,0.044,
6.667,29.12,-0.976,-0.252,
6.7,29.6,-1.127,-0.545,
6.733,29.564,-1.266,-0.648,
6.767,29.265,-1.29,-0.584,
6.8,28.904,-1.271,-0.478,
6.833,28.64,-1.255,-0.388,
6.867,28.424,-1.247,-0.418,
6.9,28.275,-1.234,-0.529,
6.933,28.175,-1.291,-0.601,
6.967,28.079,-1.36,-0.68,
7,28.209,-1.425,-0.668,
7.033,28.382,-1.511,-0.672,
7.067,28.496,-1.546,-0.656,
7.1,28.516,-1.539,-0.588,
7.133,28.449,-1.527,-0.478,
7.167,28.25,-1.505,-0.445,
7.2,27.967,-1.456,-0.444,
7.233,27.572,-1.423,-0.387,
7.267,27.175,-1.469,-0.421,
7.3,26.808,-1.564,-0.534,
7.333,26.396,-1.721,-0.687,
7.367,25.932,-1.881,-0.92,
7.4,25.099,-2.03,-1.233,
7.433,23.76,-2.158,-1.557,
7.467,22.162,-2.331,-1.887,
7.5,20.4,-2.505,-2.223,
7.533,18.946,-2.707,-2.493,
7.567,17.723,-3.014,-2.784,
7.6,16.302,-3.211,-2.819,
7.633,14.343,-3.218,-2.673,
7.667,12.192,-3.125,-2.394,
7.7,9.676,-2.906,-1.719,
7.733,7.118,-2.643,-1.507,
7.767,4.206,-2.494,-1.59,
7.8,1.406,-2.396,-1.781,
7.833,-1.328,-2.204,-2.013,
7.867,-3.989,-2.148,-2.726,
7.9,-6.917,-1.959,-3.48,
7.933,-9.739,-1.852,-4.096,
7.967,-12.368,-1.779,-4.632,
8,-14.485,-1.684,-5.006,
8.033,-16.037,-1.728,-4.96,
8.067,-17.35,-1.838,-4.915,
8.1,-18.405,-1.883,-5.074,
8.133,-19.262,-1.719,-5.222,
8.167,-19.981,-1.443,-5.306,
8.2,-20.411,-1.159,-5.207,
8.233,-20.756,-0.888,-5.113,
8.267,-21.253,-0.66,-5.057,
8.3,-21.724,-0.619,-4.981,
8.333,-22.03,-0.595,-4.966,
8.367,-22.238,-0.595,-4.91,
8.4,-22.404,-0.671,-4.863,
8.433,-22.5,-0.785,-4.846,
8.467,-22.455,-0.923,-4.664,
8.5,-22.27,-1.031,-4.458,
8.533,-21.992,-1.071,-4.179,
8.567,-21.648,-1.152,-3.82,
8.6,-21.343,-1.22,-3.529,
8.633,-21.017,-1.26,-3.28,
8.667,-20.64,-1.341,-3.003,
8.7,-20.275,-1.452,-2.742,
8.733,-19.9,-1.565,-2.581,
8.767,-19.47,-1.646,-2.553,
8.8,-18.904,-1.69,-2.52,
8.833,-17.896,-1.687,-2.463,
8.867,-16.408,-1.61,-2.324,
8.9,-14.529,-1.432,-2.08,
8.933,-12.431,-1.149,-1.889,
8.967,-10.064,-0.863,-1.798,
9,-7.42,-0.602,-2.112,
9.033,-4.789,-0.356,-2.787,
9.067,-1.797,-0.061,-3.433,
9.1,1.737,-0.018,-3.834,
9.133,5.199,-0.038,-4.283,
9.167,8.515,-0.066,-4.526,
9.2,11.437,-0.194,-4.449,
9.233,13.292,-0.283,-4.297,
9.267,14.253,-0.205,-4.247,
9.3,14.763,-0.077,-4.175,
9.333,14.894,0.058,-3.959,
9.367,15.074,0.161,-3.722,
9.4,15.16,0.215,-3.636,
9.433,15.072,0.171,-3.579,
9.467,14.815,0.066,-3.552,
9.5,14.421,-0.065,-3.531,
9.533,13.992,-0.186,-3.52,
9.567,13.734,-0.251,-3.569,
9.6,13.614,-0.259,-3.614,
9.633,13.587,-0.246,-3.605,
9.667,13.63,-0.219,-3.611,
9.7,13.636,-0.202,-3.618,
9.733,13.612,-0.21,-3.629,
9.767,13.595,-0.252,-3.595,
9.8,13.57,-0.318,-3.546,
9.833,13.468,-0.385,-3.513,
9.867,13.276,-0.455,-3.466,
9.9,13.065,-0.532,-3.434,
9.933,12.863,-0.589,-3.395,
