Time[s],Anterior(+)/posterior(-) tilt,Lateral tilt left(-)/right(+),Rotation left(+)/right(-)
0,0.543,1.969,-0.306,
0.033,0.543,1.985,-0.332,
0.067,0.492,2.002,-0.361,
0.1,0.424,2.015,-0.376,
0.133,0.403,2.034,-0.409,
0.167,0.275,2.035,-0.375,
0.2,0.173,2.076,-0.444,
0.233,0.111,2.113,-0.43,
0.267,0.024,2.119,-0.351,
0.3,-0.091,2.135,-0.33,
0.333,-0.184,2.157,-0.305,
0.367,-0.275,2.173,-0.288,
0.4,-0.398,2.138,-0.222,
0.433,-0.546,2.02,-0.03,
0.467,-0.708,1.847,0.238,
0.5,-0.832,1.673,0.563,
0.533,-0.958,1.484,0.978,
0.567,-1.097,1.266,1.517,
0.6,-1.25,1.096,2.122,
0.633,-1.341,1.061,2.803,
0.667,-1.421,0.99,3.719,
0.7,-1.461,0.849,4.702,
0.733,-1.462,0.655,5.682,
0.767,-1.412,0.454,6.725,
0.8,-1.371,0.239,7.816,
0.833,-1.407,-0,8.906,
0.867,-1.423,-0.245,10,
0.9,-1.414,-0.512,11.132,
0.933,-1.442,-0.742,12.352,
0.967,-1.453,-0.971,13.677,
1,-1.415,-1.222,15.018,
1.033,-1.498,-1.476,16.447,
1.067,-1.521,-1.732,17.887,
1.1,-1.539,-2.026,19.439,
1.133,-1.693,-2.262,21.025,
1.167,-1.768,-2.445,22.604,
1.2,-1.865,-2.602,24.166,
1.233,-2.04,-2.836,25.739,
1.267,-2.255,-3.06,27.286,
1.3,-2.431,-3.217,28.718,
1.333,-2.561,-3.45,29.965,
1.367,-2.739,-3.708,31.11,
1.4,-2.943,-3.918,32.195,
1.433,-3.108,-4.062,33.19,
1.467,-3.278,-4.094,34.126,
1.5,-3.365,-4.279,34.872,
1.533,-3.408,-4.511,35.557,
1.567,-3.404,-4.709,36.18,
1.6,-3.391,-4.882,36.733,
1.633,-3.417,-5.015,37.159,
1.667,-3.406,-5.107,37.414,
1.7,-3.459,-5.175,37.451,
1.733,-3.556,-5.249,37.428,
1.767,-3.585,-5.342,37.329,
1.8,-3.621,-5.41,37.104,
1.833,-3.644,-5.472,36.817,
1.867,-3.655,-5.485,36.485,
1.9,-3.719,-5.434,36.176,
1.933,-3.723,-5.348,35.782,
1.967,-3.699,-5.246,35.433,
2,-3.671,-5.178,35.076,
2.033,-3.676,-5.033,34.592,
2.067,-3.776,-4.775,33.96,
2.1,-3.984,-4.397,33.176,
2.133,-4.19,-4.016,32.248,
2.167,-4.368,-3.614,31.096,
2.2,-4.537,-3.244,29.848,
2.233,-4.672,-2.918,28.578,
2.267,-4.823,-2.563,27.252,
2.3,-5.019,-2.166,25.844,
2.333,-5.18,-1.709,24.447,
2.367,-5.225,-1.247,23.063,
2.4,-5.206,-0.852,21.587,
2.433,-5.313,-0.445,20.07,
2.467,-5.375,-0.007,18.549,
2.5,-5.316,0.376,17.028,
2.533,-5.202,0.608,15.445,
2.567,-5.18,0.831,13.871,
2.6,-5.138,1.009,12.378,
2.633,-5.143,1.078,10.955,
2.667,-5.278,1.137,9.594,
2.7,-5.442,1.163,8.205,
2.733,-5.375,1.303,6.728,
2.767,-5.394,1.526,5.367,
2.8,-5.296,1.829,3.763,
2.833,-5.244,2.19,2.273,
2.867,-5.324,2.522,0.99,
2.9,-5.368,2.742,-0.203,
2.933,-5.364,2.883,-1.294,
2.967,-5.372,2.972,-2.305,
3,-5.423,3.013,-3.337,
3.033,-5.445,3.018,-4.281,
3.067,-5.463,3.025,-5.111,
3.1,-5.492,3.065,-5.733,
3.133,-5.492,3.129,-6.126,
3.167,-5.499,3.25,-6.361,
3.2,-5.427,3.354,-6.443,
3.233,-5.281,3.431,-6.452,
3.267,-5.176,3.511,-6.414,
3.3,-5.11,3.558,-6.357,
3.333,-5.047,3.58,-6.296,
3.367,-4.975,3.574,-6.243,
3.4,-4.917,3.566,-6.186,
3.433,-4.856,3.552,-6.114,
3.467,-4.82,3.559,-6.03,
3.5,-4.804,3.572,-5.995,
3.533,-4.751,3.583,-5.973,
3.567,-4.635,3.59,-6.017,
3.6,-4.671,3.542,-6.016,
3.633,-4.683,3.481,-6.205,
3.667,-4.597,3.402,-6.366,
3.7,-4.529,3.269,-6.541,
3.733,-4.499,3.138,-6.877,
3.767,-4.455,2.991,-7.427,
3.8,-4.411,2.814,-8.092,
3.833,-4.404,2.613,-8.858,
3.867,-4.43,2.403,-9.709,
3.9,-4.582,2.191,-10.644,
3.933,-4.737,2.004,-11.623,
3.967,-4.827,1.782,-12.582,
4,-4.828,1.511,-13.489,
4.033,-4.891,1.168,-14.321,
4.067,-4.932,0.858,-15.303,
4.1,-4.921,0.65,-16.421,
4.133,-4.877,0.489,-17.564,
4.167,-4.695,0.409,-18.595,
4.2,-4.585,0.331,-19.513,
4.233,-4.652,0.247,-20.493,
4.267,-4.787,0.166,-21.545,
4.3,-4.879,0.119,-22.596,
4.333,-5.012,0.077,-23.666,
4.367,-5.226,-0.003,-24.728,
4.4,-5.463,-0.164,-25.701,
4.433,-5.65,-0.377,-26.551,
4.467,-5.777,-0.599,-27.364,
4.5,-5.853,-0.824,-27.905,
4.533,-5.875,-1.059,-28.211,
4.567,-5.953,-1.219,-28.459,
4.6,-6.188,-1.291,-28.625,
4.633,-6.562,-1.332,-28.739,
4.667,-6.882,-1.352,-28.783,
4.7,-7.082,-1.341,-28.774,
4.733,-7.275,-1.347,-28.769,
4.767,-7.502,-1.393,-28.741,
4.8,-7.674,-1.431,-28.702,
4.833,-7.817,-1.462,-28.716,
4.867,-7.906,-1.505,-28.683,
4.9,-7.993,-1.55,-28.657,
4.933,-8.066,-1.605,-28.626,
4.967,-8.122,-1.674,-28.476,
5,-8.253,-1.748,-28.277,
5.033,-8.424,-1.779,-28.057,
5.067,-8.609,-1.761,-27.829,
5.1,-8.771,-1.747,-27.569,
5.133,-8.934,-1.771,-27.265,
5.167,-9.065,-1.827,-26.882,
5.2,-9.125,-1.895,-26.384,
5.233,-9.188,-1.988,-25.754,
5.267,-9.232,-2.094,-24.97,
5.3,-9.148,-2.18,-24.208,
5.333,-9.096,-2.261,-23.365,
5.367,-8.91,-2.299,-22.29,
5.4,-8.677,-2.257,-21.162,
5.433,-8.538,-2.116,-20.223,
5.467,-8.736,-1.95,-19.359,
5.5,-9.038,-1.675,-18.534,
5.533,-9.237,-1.255,-17.713,
5.567,-9.238,-0.787,-16.734,
5.6,-9.05,-0.366,-15.495,
5.633,-8.835,-0.034,-14.09,
5.667,-8.719,0.268,-12.686,
5.7,-8.508,0.587,-11.266,
5.733,-8.226,0.923,-9.988,
5.767,-7.805,1.271,-8.806,
5.8,-7.309,1.536,-7.573,
5.833,-6.827,1.737,-6.497,
5.867,-6.283,1.888,-5.647,
5.9,-5.756,1.963,-4.827,
5.933,-5.284,1.968,-4.042,
5.967,-4.874,1.926,-3.292,
6,-4.34,1.845,-2.568,
6.033,-3.817,1.766,-1.921,
6.067,-3.332,1.696,-1.354,
6.1,-2.951,1.598,-0.939,
6.133,-2.641,1.52,-0.767,
6.167,-2.386,1.433,-0.654,
6.2,-2.245,1.304,-0.658,
6.233,-2.141,1.178,-0.609,
6.267,-1.939,1.082,-0.547,
6.3,-1.706,1.037,-0.563,
6.333,-1.508,1.024,-0.579,
6.367,-1.342,1.08,-0.677,
6.4,-1.142,1.142,-0.819,
6.433,-0.907,1.145,-0.885,
6.467,-0.748,1.123,-0.907,
6.5,-0.642,1.123,-0.988,
6.533,-0.531,1.193,-1.155,
6.567,-0.427,1.327,-1.329,
6.6,-0.329,1.466,-1.477,
6.633,-0.253,1.581,-1.584,
6.667,-0.158,1.642,-1.583,
6.7,-0.059,1.699,-1.573,
6.733,-0.069,1.7,-1.429,
6.767,-0.113,1.626,-1.082,
6.8,-0.035,1.527,-0.637,
6.833,0.066,1.412,-0.086,
6.867,0.105,1.212,0.681,
6.9,0.202,0.938,1.633,
6.933,0.315,0.645,2.65,
6.967,0.359,0.346,3.796,
7,0.354,0.014,5.079,
7.033,0.325,-0.308,6.522,
7.067,0.36,-0.621,8.175,
7.1,0.212,-0.942,10.009,
7.133,0.026,-1.249,12.031,
7.167,-0.335,-1.553,14.257,
7.2,-0.662,-1.747,16.615,
7.233,-0.898,-1.936,18.952,
7.267,-1.031,-2.199,21.28,
7.3,-1.127,-2.405,23.425,
7.333,-1.18,-2.612,25.445,
7.367,-1.128,-2.821,27.35,
7.4,-1.016,-2.954,28.967,
7.433,-0.838,-2.986,30.351,
7.467,-0.633,-2.957,31.41,
7.5,-0.396,-2.81,32.135,
7.533,-0.166,-2.711,32.641,
7.567,0.016,-2.676,33.051,
7.6,0.192,-2.57,33.285,
7.633,0.339,-2.461,33.324,
7.667,0.455,-2.425,33.256,
7.7,0.536,-2.453,33.138,
7.733,0.58,-2.545,33.049,
7.767,0.558,-2.664,32.934,
7.8,0.502,-2.799,32.757,
7.833,0.445,-2.916,32.536,
7.867,0.422,-2.981,32.312,
7.9,0.449,-3.028,32.083,
7.933,0.545,-3.051,31.887,
7.967,0.58,-3.086,31.73,
8,0.661,-3.111,31.623,
8.033,0.702,-3.125,31.578,
8.067,0.753,-3.083,31.476,
8.1,0.795,-2.97,31.303,
8.133,0.85,-2.833,31.119,
8.167,0.868,-2.656,30.901,
8.2,0.779,-2.417,30.528,
8.233,0.572,-2.178,29.952,
8.267,0.401,-1.85,29.242,
8.3,0.184,-1.497,28.59,
8.333,-0.098,-1.115,27.658,
8.367,-0.442,-0.655,26.392,
8.4,-0.858,-0.16,25.039,
8.433,-1.214,0.113,23.63,
8.467,-1.612,0.234,22.097,
8.5,-2.019,0.398,20.464,
8.533,-2.371,0.569,18.538,
8.567,-2.499,0.74,16.443,
8.6,-2.648,0.998,14.25,
8.633,-2.841,1.282,11.937,
8.667,-2.91,1.463,9.791,
8.7,-2.96,1.632,7.763,
8.733,-2.867,1.833,5.693,
8.767,-2.641,2.029,3.751,
8.8,-2.499,2.199,2.091,
8.833,-2.407,2.423,0.378,
8.867,-2.164,2.575,-1.149,
8.9,-1.965,2.588,-2.56,
8.933,-1.809,2.579,-4.01,
8.967,-1.774,2.58,-5.322,
9,-1.776,2.591,-6.371,
9.033,-1.785,2.646,-7.211,
9.067,-1.834,2.745,-7.856,
9.1,-1.961,2.865,-8.301,
9.133,-2.065,2.965,-8.598,
9.167,-2.118,3.04,-8.76,
9.2,-2.158,3.139,-8.878,
9.233,-2.174,3.248,-8.896,
9.267,-2.187,3.338,-8.828,
9.3,-2.21,3.398,-8.723,
9.333,-2.203,3.457,-8.661,
9.367,-2.206,3.558,-8.683,
9.4,-2.33,3.651,-8.788,
9.433,-2.466,3.672,-8.985,
9.467,-2.559,3.595,-9.239,
9.5,-2.604,3.487,-9.634,
9.533,-2.598,3.466,-10.219,
9.567,-2.641,3.51,-10.957,
9.6,-2.601,3.571,-11.731,
9.633,-2.468,3.597,-12.612,
9.667,-2.465,3.557,-13.472,
9.7,-2.409,3.471,-14.27,
9.733,-2.399,3.303,-15.171,
9.767,-2.458,3.058,-16.222,
9.8,-2.457,2.8,-17.43,
9.833,-2.529,2.559,-18.697,
9.867,-2.591,2.354,-20.011,
9.9,-2.714,2.164,-21.391,
9.933,-2.889,1.997,-22.703,
