Time[s],Anterior(+)/posterior(-) tilt,Lateral tilt left(-)/right(+),Rotation left(+)/right(-)
0,17.035,-6.215,-0.534,
0.01,17.031,-6.228,-0.524,
0.02,17.024,-6.245,-0.514,
0.03,17.013,-6.266,-0.505,
0.04,16.997,-6.289,-0.498,
0.05,16.975,-6.314,-0.497,
0.06,16.947,-6.34,-0.501,
0.07,16.914,-6.365,-0.512,
0.08,16.878,-6.391,-0.527,
0.09,16.841,-6.415,-0.543,
0.1,16.805,-6.439,-0.56,
0.11,16.771,-6.461,-0.576,
0.12,16.738,-6.482,-0.591,
0.13,16.708,-6.501,-0.604,
0.14,16.679,-6.518,-0.616,
0.15,16.648,-6.533,-0.628,
0.16,16.615,-6.547,-0.638,
0.17,16.579,-6.56,-0.649,
0.18,16.541,-6.569,-0.659,
0.19,16.502,-6.576,-0.668,
0.2,16.463,-6.58,-0.675,
0.21,16.425,-6.581,-0.68,
0.22,16.391,-6.58,-0.681,
0.23,16.36,-6.578,-0.679,
0.24,16.333,-6.576,-0.676,
0.25,16.309,-6.573,-0.672,
0.26,16.287,-6.569,-0.671,
0.27,16.266,-6.565,-0.672,
0.28,16.243,-6.557,-0.677,
0.29,16.217,-6.546,-0.686,
0.3,16.186,-6.531,-0.697,
0.31,16.151,-6.512,-0.712,
0.32,16.113,-6.489,-0.727,
0.33,16.073,-6.464,-0.743,
0.34,16.034,-6.436,-0.76,
0.35,15.995,-6.408,-0.777,
0.36,15.954,-6.378,-0.794,
0.37,15.911,-6.345,-0.812,
0.38,15.862,-6.311,-0.831,
0.39,15.808,-6.274,-0.852,
0.4,15.749,-6.236,-0.872,
0.41,15.688,-6.199,-0.893,
0.42,15.629,-6.162,-0.913,
0.43,15.574,-6.127,-0.93,
0.44,15.524,-6.094,-0.945,
0.45,15.48,-6.063,-0.958,
0.46,15.441,-6.032,-0.968,
0.47,15.405,-6.001,-0.977,
0.48,15.374,-5.968,-0.984,
0.49,15.346,-5.935,-0.992,
0.5,15.321,-5.902,-0.999,
0.51,15.301,-5.869,-1.008,
0.52,15.284,-5.838,-1.016,
0.53,15.27,-5.808,-1.026,
0.54,15.258,-5.779,-1.036,
0.55,15.246,-5.752,-1.045,
0.56,15.236,-5.727,-1.054,
0.57,15.226,-5.702,-1.061,
0.58,15.218,-5.679,-1.068,
0.59,15.212,-5.657,-1.074,
0.6,15.207,-5.637,-1.08,
0.61,15.205,-5.618,-1.086,
0.62,15.205,-5.601,-1.092,
0.63,15.206,-5.585,-1.098,
0.64,15.208,-5.57,-1.105,
0.65,15.21,-5.556,-1.113,
0.66,15.211,-5.541,-1.121,
0.67,15.212,-5.526,-1.13,
0.68,15.213,-5.512,-1.138,
0.69,15.214,-5.498,-1.146,
0.7,15.214,-5.484,-1.153,
0.71,15.214,-5.471,-1.159,
0.72,15.213,-5.459,-1.163,
0.73,15.211,-5.447,-1.166,
0.74,15.208,-5.436,-1.168,
0.75,15.203,-5.427,-1.168,
0.76,15.198,-5.419,-1.166,
0.77,15.192,-5.412,-1.162,
0.78,15.185,-5.408,-1.158,
0.79,15.177,-5.405,-1.153,
0.8,15.169,-5.404,-1.149,
0.81,15.161,-5.404,-1.145,
0.82,15.154,-5.404,-1.143,
0.83,15.148,-5.405,-1.142,
0.84,15.142,-5.405,-1.142,
0.85,15.136,-5.405,-1.142,
0.86,15.131,-5.405,-1.142,
0.87,15.126,-5.405,-1.142,
0.88,15.122,-5.406,-1.142,
0.89,15.119,-5.409,-1.141,
0.9,15.118,-5.412,-1.141,
0.91,15.118,-5.417,-1.14,
0.92,15.118,-5.422,-1.141,
0.93,15.119,-5.427,-1.143,
0.94,15.119,-5.432,-1.146,
0.95,15.119,-5.436,-1.149,
0.96,15.117,-5.439,-1.154,
0.97,15.115,-5.44,-1.158,
0.98,15.113,-5.44,-1.163,
0.99,15.11,-5.439,-1.167,
1,15.108,-5.438,-1.172,
1.01,15.106,-5.437,-1.176,
1.02,15.105,-5.435,-1.18,
1.03,15.106,-5.434,-1.183,
1.04,15.108,-5.433,-1.186,
1.05,15.111,-5.432,-1.188,
1.06,15.115,-5.431,-1.19,
1.07,15.117,-5.428,-1.191,
1.08,15.119,-5.426,-1.191,
1.09,15.12,-5.424,-1.191,
1.1,15.12,-5.422,-1.19,
1.11,15.119,-5.421,-1.19,
1.12,15.119,-5.422,-1.189,
1.13,15.117,-5.423,-1.189,
1.14,15.114,-5.424,-1.188,
1.15,15.109,-5.425,-1.189,
1.16,15.102,-5.426,-1.189,
1.17,15.094,-5.426,-1.189,
1.18,15.086,-5.426,-1.189,
1.19,15.079,-5.427,-1.189,
1.2,15.074,-5.428,-1.188,
1.21,15.069,-5.431,-1.187,
1.22,15.063,-5.434,-1.185,
1.23,15.057,-5.439,-1.184,
1.24,15.049,-5.443,-1.183,
1.25,15.041,-5.447,-1.183,
1.26,15.032,-5.451,-1.184,
1.27,15.024,-5.455,-1.185,
1.28,15.018,-5.459,-1.187,
1.29,15.014,-5.462,-1.19,
1.3,15.011,-5.465,-1.192,
1.31,15.009,-5.467,-1.195,
1.32,15.008,-5.468,-1.197,
1.33,15.007,-5.469,-1.199,
1.34,15.006,-5.469,-1.2,
1.35,15.004,-5.468,-1.2,
1.36,15.001,-5.467,-1.201,
1.37,14.998,-5.467,-1.201,
1.38,14.994,-5.467,-1.201,
1.39,14.992,-5.467,-1.2,
1.4,14.989,-5.469,-1.199,
1.41,14.987,-5.47,-1.197,
1.42,14.983,-5.472,-1.195,
1.43,14.978,-5.473,-1.195,
1.44,14.972,-5.474,-1.196,
1.45,14.965,-5.475,-1.198,
1.46,14.957,-5.475,-1.202,
1.47,14.95,-5.475,-1.207,
1.48,14.944,-5.474,-1.212,
1.49,14.939,-5.473,-1.217,
1.5,14.935,-5.471,-1.221,
1.51,14.932,-5.47,-1.224,
1.52,14.929,-5.469,-1.228,
1.53,14.927,-5.468,-1.231,
1.54,14.924,-5.469,-1.235,
1.55,14.922,-5.47,-1.238,
1.56,14.919,-5.472,-1.242,
1.57,14.917,-5.474,-1.246,
1.58,14.916,-5.475,-1.249,
1.59,14.915,-5.477,-1.252,
1.6,14.915,-5.477,-1.254,
1.61,14.915,-5.477,-1.256,
1.62,14.915,-5.477,-1.257,
1.63,14.916,-5.475,-1.259,
1.64,14.918,-5.474,-1.261,
1.65,14.92,-5.471,-1.262,
1.66,14.924,-5.468,-1.264,
1.67,14.928,-5.465,-1.266,
1.68,14.933,-5.463,-1.268,
1.69,14.939,-5.461,-1.269,
1.7,14.944,-5.46,-1.271,
1.71,14.949,-5.46,-1.272,
1.72,14.954,-5.46,-1.272,
1.73,14.958,-5.46,-1.273,
1.74,14.961,-5.459,-1.273,
1.75,14.965,-5.458,-1.273,
1.76,14.968,-5.457,-1.273,
1.77,14.971,-5.455,-1.273,
1.78,14.976,-5.453,-1.273,
1.79,14.981,-5.45,-1.272,
1.8,14.986,-5.448,-1.271,
1.81,14.991,-5.446,-1.27,
1.82,14.996,-5.443,-1.27,
1.83,15,-5.441,-1.27,
1.84,15.003,-5.44,-1.271,
1.85,15.005,-5.438,-1.272,
1.86,15.008,-5.436,-1.272,
1.87,15.01,-5.435,-1.272,
1.88,15.012,-5.434,-1.271,
1.89,15.015,-5.433,-1.27,
1.9,15.018,-5.433,-1.269,
1.91,15.019,-5.433,-1.269,
1.92,15.019,-5.433,-1.271,
1.93,15.015,-5.432,-1.273,
1.94,15.01,-5.43,-1.275,
1.95,15.002,-5.427,-1.277,
1.96,14.993,-5.422,-1.278,
1.97,14.986,-5.418,-1.278,
1.98,14.981,-5.414,-1.277,
1.99,14.979,-5.411,-1.276,
2,14.978,-5.409,-1.274,
2.01,14.978,-5.408,-1.273,
2.02,14.977,-5.407,-1.271,
2.03,14.976,-5.406,-1.27,
2.04,14.974,-5.406,-1.267,
2.05,14.973,-5.405,-1.265,
2.06,14.974,-5.404,-1.264,
2.07,14.976,-5.403,-1.264,
2.08,14.982,-5.402,-1.266,
2.09,14.99,-5.401,-1.269,
2.1,15,-5.399,-1.275,
2.11,15.012,-5.396,-1.281,
2.12,15.024,-5.393,-1.287,
2.13,15.035,-5.39,-1.291,
2.14,15.045,-5.387,-1.294,
2.15,15.054,-5.384,-1.296,
2.16,15.062,-5.382,-1.297,
2.17,15.07,-5.38,-1.299,
2.18,15.077,-5.378,-1.301,
2.19,15.083,-5.377,-1.305,
2.2,15.089,-5.375,-1.31,
2.21,15.094,-5.371,-1.314,
2.22,15.099,-5.367,-1.319,
2.23,15.104,-5.362,-1.322,
2.24,15.111,-5.355,-1.325,
2.25,15.119,-5.348,-1.328,
2.26,15.13,-5.34,-1.33,
2.27,15.144,-5.331,-1.331,
2.28,15.159,-5.322,-1.332,
2.29,15.174,-5.312,-1.333,
2.3,15.19,-5.302,-1.332,
2.31,15.204,-5.291,-1.332,
2.32,15.216,-5.279,-1.331,
2.33,15.226,-5.268,-1.33,
2.34,15.235,-5.257,-1.331,
2.35,15.242,-5.246,-1.332,
2.36,15.249,-5.237,-1.334,
2.37,15.255,-5.228,-1.336,
2.38,15.263,-5.22,-1.338,
2.39,15.271,-5.212,-1.339,
2.4,15.28,-5.204,-1.339,
2.41,15.291,-5.196,-1.339,
2.42,15.304,-5.188,-1.339,
2.43,15.317,-5.18,-1.339,
2.44,15.333,-5.172,-1.34,
2.45,15.352,-5.166,-1.342,
2.46,15.373,-5.161,-1.345,
2.47,15.4,-5.158,-1.35,
2.48,15.433,-5.158,-1.355,
2.49,15.471,-5.161,-1.363,
2.5,15.516,-5.168,-1.372,
2.51,15.566,-5.178,-1.384,
2.52,15.619,-5.191,-1.398,
2.53,15.673,-5.205,-1.414,
2.54,15.729,-5.218,-1.432,
2.55,15.784,-5.23,-1.451,
2.56,15.838,-5.24,-1.472,
2.57,15.89,-5.248,-1.493,
2.58,15.94,-5.253,-1.516,
2.59,15.987,-5.256,-1.539,
2.6,16.031,-5.258,-1.564,
2.61,16.072,-5.259,-1.589,
2.62,16.112,-5.259,-1.617,
2.63,16.153,-5.26,-1.644,
2.64,16.197,-5.259,-1.672,
2.65,16.246,-5.258,-1.697,
2.66,16.3,-5.257,-1.719,
2.67,16.357,-5.256,-1.737,
2.68,16.415,-5.255,-1.751,
2.69,16.472,-5.256,-1.76,
2.7,16.527,-5.257,-1.767,
2.71,16.577,-5.261,-1.774,
2.72,16.624,-5.266,-1.78,
2.73,16.668,-5.272,-1.788,
2.74,16.708,-5.279,-1.797,
2.75,16.744,-5.286,-1.806,
2.76,16.776,-5.291,-1.815,
2.77,16.804,-5.295,-1.823,
2.78,16.828,-5.297,-1.83,
2.79,16.85,-5.298,-1.836,
2.8,16.87,-5.298,-1.841,
2.81,16.887,-5.298,-1.844,
2.82,16.902,-5.299,-1.845,
2.83,16.914,-5.302,-1.842,
2.84,16.923,-5.306,-1.835,
2.85,16.929,-5.314,-1.825,
2.86,16.933,-5.323,-1.811,
2.87,16.936,-5.335,-1.796,
2.88,16.937,-5.348,-1.78,
2.89,16.938,-5.362,-1.766,
2.9,16.936,-5.374,-1.753,
2.91,16.934,-5.385,-1.742,
2.92,16.929,-5.392,-1.733,
2.93,16.924,-5.395,-1.725,
2.94,16.918,-5.394,-1.717,
2.95,16.911,-5.39,-1.709,
2.96,16.905,-5.383,-1.7,
2.97,16.9,-5.376,-1.691,
2.98,16.896,-5.369,-1.683,
2.99,16.893,-5.364,-1.677,
3,16.891,-5.36,-1.672,
3.01,16.89,-5.359,-1.668,
3.02,16.889,-5.358,-1.665,
3.03,16.888,-5.357,-1.663,
3.04,16.887,-5.357,-1.661,
3.05,16.886,-5.356,-1.658,
3.06,16.884,-5.354,-1.654,
3.07,16.881,-5.352,-1.649,
3.08,16.877,-5.35,-1.643,
3.09,16.872,-5.346,-1.636,
3.1,16.864,-5.342,-1.629,
3.11,16.853,-5.335,-1.623,
3.12,16.838,-5.328,-1.617,
3.13,16.818,-5.319,-1.612,
3.14,16.793,-5.311,-1.608,
3.15,16.765,-5.305,-1.607,
3.16,16.736,-5.302,-1.608,
3.17,16.706,-5.302,-1.611,
3.18,16.676,-5.305,-1.614,
3.19,16.648,-5.309,-1.617,
3.2,16.619,-5.313,-1.619,
3.21,16.587,-5.314,-1.619,
3.22,16.553,-5.311,-1.619,
3.23,16.516,-5.304,-1.618,
3.24,16.476,-5.292,-1.616,
3.25,16.437,-5.28,-1.615,
3.26,16.398,-5.269,-1.613,
3.27,16.361,-5.26,-1.612,
3.28,16.328,-5.255,-1.609,
3.29,16.296,-5.253,-1.605,
3.3,16.265,-5.252,-1.601,
3.31,16.235,-5.249,-1.597,
3.32,16.204,-5.244,-1.595,
3.33,16.172,-5.236,-1.596,
3.34,16.142,-5.224,-1.601,
3.35,16.113,-5.21,-1.608,
3.36,16.087,-5.195,-1.618,
3.37,16.065,-5.18,-1.628,
3.38,16.047,-5.165,-1.638,
3.39,16.032,-5.151,-1.646,
3.4,16.019,-5.138,-1.653,
3.41,16.006,-5.125,-1.658,
3.42,15.994,-5.112,-1.662,
3.43,15.982,-5.099,-1.666,
3.44,15.969,-5.087,-1.669,
3.45,15.955,-5.076,-1.672,
3.46,15.941,-5.068,-1.673,
3.47,15.926,-5.061,-1.673,
3.48,15.913,-5.056,-1.672,
3.49,15.9,-5.054,-1.669,
3.5,15.887,-5.053,-1.666,
3.51,15.876,-5.053,-1.663,
3.52,15.864,-5.052,-1.661,
3.53,15.851,-5.052,-1.658,
3.54,15.836,-5.051,-1.655,
3.55,15.82,-5.05,-1.651,
3.56,15.804,-5.049,-1.647,
3.57,15.788,-5.049,-1.643,
3.58,15.774,-5.051,-1.64,
3.59,15.761,-5.054,-1.639,
3.6,15.75,-5.058,-1.638,
3.61,15.74,-5.062,-1.638,
3.62,15.729,-5.065,-1.638,
3.63,15.719,-5.067,-1.639,
3.64,15.708,-5.068,-1.639,
3.65,15.699,-5.069,-1.639,
3.66,15.691,-5.069,-1.638,
3.67,15.684,-5.068,-1.638,
3.68,15.679,-5.067,-1.638,
3.69,15.676,-5.066,-1.637,
3.7,15.673,-5.063,-1.635,
3.71,15.671,-5.061,-1.631,
3.72,15.667,-5.059,-1.627,
3.73,15.663,-5.057,-1.621,
3.74,15.657,-5.055,-1.615,
3.75,15.651,-5.053,-1.609,
3.76,15.644,-5.053,-1.603,
3.77,15.637,-5.052,-1.598,
3.78,15.631,-5.052,-1.594,
3.79,15.626,-5.052,-1.589,
3.8,15.62,-5.052,-1.584,
3.81,15.614,-5.051,-1.579,
3.82,15.607,-5.048,-1.572,
3.83,15.6,-5.046,-1.565,
3.84,15.592,-5.043,-1.558,
3.85,15.585,-5.041,-1.552,
3.86,15.577,-5.04,-1.546,
3.87,15.57,-5.04,-1.543,
3.88,15.563,-5.04,-1.542,
3.89,15.556,-5.04,-1.542,
3.9,15.547,-5.039,-1.543,
3.91,15.538,-5.038,-1.544,
3.92,15.528,-5.035,-1.544,
3.93,15.517,-5.03,-1.545,
3.94,15.506,-5.025,-1.545,
3.95,15.493,-5.018,-1.546,
3.96,15.479,-5.011,-1.546,
3.97,15.462,-5.002,-1.546,
3.98,15.442,-4.994,-1.546,
3.99,15.419,-4.984,-1.547,
4,15.393,-4.973,-1.548,
4.01,15.362,-4.961,-1.549,
4.02,15.328,-4.949,-1.552,
4.03,15.288,-4.938,-1.556,
4.04,15.245,-4.928,-1.562,
4.05,15.197,-4.92,-1.569,
4.06,15.146,-4.913,-1.577,
4.07,15.09,-4.907,-1.586,
4.08,15.031,-4.901,-1.595,
4.09,14.964,-4.892,-1.605,
4.1,14.889,-4.878,-1.617,
4.11,14.804,-4.86,-1.629,
4.12,14.706,-4.836,-1.643,
4.13,14.596,-4.806,-1.657,
4.14,14.476,-4.772,-1.671,
4.15,14.348,-4.735,-1.684,
4.16,14.213,-4.695,-1.695,
4.17,14.073,-4.654,-1.705,
4.18,13.929,-4.614,-1.712,
4.19,13.781,-4.576,-1.72,
4.2,13.629,-4.54,-1.727,
4.21,13.473,-4.505,-1.735,
4.22,13.312,-4.472,-1.746,
4.23,13.147,-4.44,-1.76,
4.24,12.978,-4.405,-1.775,
4.25,12.803,-4.368,-1.791,
4.26,12.622,-4.326,-1.806,
4.27,12.434,-4.281,-1.818,
4.28,12.239,-4.23,-1.827,
4.29,12.036,-4.175,-1.834,
4.3,11.826,-4.115,-1.839,
4.31,11.61,-4.051,-1.844,
4.32,11.39,-3.983,-1.849,
4.33,11.168,-3.911,-1.855,
4.34,10.946,-3.836,-1.863,
4.35,10.722,-3.758,-1.872,
4.36,10.497,-3.678,-1.882,
4.37,10.268,-3.594,-1.891,
4.38,10.034,-3.505,-1.9,
4.39,9.794,-3.413,-1.906,
4.4,9.546,-3.317,-1.91,
4.41,9.292,-3.218,-1.912,
4.42,9.031,-3.117,-1.913,
4.43,8.764,-3.015,-1.917,
4.44,8.491,-2.913,-1.925,
4.45,8.215,-2.813,-1.94,
4.46,7.937,-2.714,-1.962,
4.47,7.66,-2.617,-1.991,
4.48,7.387,-2.522,-2.026,
4.49,7.12,-2.43,-2.063,
4.5,6.859,-2.339,-2.101,
4.51,6.607,-2.251,-2.138,
4.52,6.362,-2.166,-2.172,
4.53,6.123,-2.084,-2.202,
4.54,5.889,-2.005,-2.227,
4.55,5.658,-1.93,-2.251,
4.56,5.431,-1.86,-2.274,
4.57,5.205,-1.794,-2.299,
4.58,4.982,-1.735,-2.328,
4.59,4.761,-1.681,-2.361,
4.6,4.544,-1.631,-2.398,
4.61,4.332,-1.583,-2.437,
4.62,4.127,-1.535,-2.474,
4.63,3.931,-1.487,-2.508,
4.64,3.743,-1.435,-2.536,
4.65,3.562,-1.381,-2.559,
4.66,3.387,-1.322,-2.576,
4.67,3.215,-1.259,-2.588,
4.68,3.043,-1.19,-2.597,
4.69,2.87,-1.115,-2.603,
4.7,2.693,-1.034,-2.606,
4.71,2.511,-0.947,-2.605,
4.72,2.323,-0.854,-2.597,
4.73,2.127,-0.758,-2.581,
4.74,1.924,-0.658,-2.556,
4.75,1.713,-0.555,-2.522,
4.76,1.495,-0.452,-2.482,
4.77,1.272,-0.349,-2.439,
4.78,1.045,-0.246,-2.395,
4.79,0.817,-0.144,-2.354,
4.8,0.589,-0.045,-2.318,
4.81,0.364,0.053,-2.285,
4.82,0.143,0.148,-2.254,
4.83,-0.075,0.241,-2.224,
4.84,-0.29,0.333,-2.193,
4.85,-0.5,0.423,-2.16,
4.86,-0.705,0.512,-2.128,
4.87,-0.902,0.601,-2.098,
4.88,-1.088,0.689,-2.073,
4.89,-1.26,0.777,-2.054,
4.9,-1.418,0.865,-2.041,
4.91,-1.561,0.952,-2.035,
4.92,-1.69,1.038,-2.034,
4.93,-1.808,1.122,-2.035,
4.94,-1.917,1.204,-2.036,
4.95,-2.019,1.282,-2.036,
4.96,-2.116,1.357,-2.034,
4.97,-2.209,1.428,-2.033,
4.98,-2.3,1.497,-2.033,
4.99,-2.39,1.564,-2.036,
5,-2.479,1.631,-2.044,
5.01,-2.567,1.698,-2.057,
5.02,-2.653,1.764,-2.075,
5.03,-2.739,1.829,-2.097,
5.04,-2.823,1.892,-2.121,
5.05,-2.906,1.951,-2.147,
5.06,-2.989,2.006,-2.174,
5.07,-3.07,2.055,-2.203,
5.08,-3.151,2.1,-2.233,
5.09,-3.231,2.14,-2.266,
5.1,-3.312,2.179,-2.305,
5.11,-3.394,2.218,-2.349,
5.12,-3.478,2.259,-2.4,
5.13,-3.564,2.305,-2.456,
5.14,-3.653,2.354,-2.515,
5.15,-3.744,2.408,-2.573,
5.16,-3.836,2.463,-2.629,
5.17,-3.929,2.519,-2.679,
5.18,-4.019,2.572,-2.723,
5.19,-4.106,2.622,-2.761,
5.2,-4.187,2.667,-2.793,
5.21,-4.263,2.706,-2.822,
5.22,-4.335,2.738,-2.849,
5.23,-4.405,2.763,-2.878,
5.24,-4.475,2.783,-2.911,
5.25,-4.547,2.799,-2.951,
5.26,-4.62,2.813,-2.999,
5.27,-4.694,2.827,-3.052,
5.28,-4.768,2.841,-3.107,
5.29,-4.84,2.856,-3.162,
5.3,-4.907,2.872,-3.212,
5.31,-4.969,2.89,-3.254,
5.32,-5.028,2.909,-3.285,
5.33,-5.087,2.929,-3.304,
5.34,-5.149,2.949,-3.312,
5.35,-5.218,2.968,-3.313,
5.36,-5.295,2.988,-3.31,
5.37,-5.377,3.009,-3.308,
5.38,-5.465,3.032,-3.308,
5.39,-5.556,3.057,-3.309,
5.4,-5.647,3.085,-3.309,
5.41,-5.735,3.116,-3.305,
5.42,-5.818,3.149,-3.295,
5.43,-5.892,3.184,-3.277,
5.44,-5.955,3.217,-3.252,
5.45,-6.006,3.248,-3.223,
5.46,-6.046,3.273,-3.194,
5.47,-6.077,3.293,-3.171,
5.48,-6.104,3.309,-3.159,
5.49,-6.13,3.323,-3.162,
5.5,-6.162,3.337,-3.181,
5.51,-6.204,3.354,-3.213,
5.52,-6.259,3.375,-3.256,
5.53,-6.328,3.4,-3.304,
5.54,-6.408,3.427,-3.354,
5.55,-6.496,3.454,-3.402,
5.56,-6.586,3.477,-3.443,
5.57,-6.671,3.493,-3.475,
5.58,-6.748,3.499,-3.496,
5.59,-6.815,3.491,-3.507,
5.6,-6.874,3.468,-3.514,
5.61,-6.929,3.431,-3.52,
5.62,-6.985,3.38,-3.528,
5.63,-7.046,3.318,-3.542,
5.64,-7.115,3.247,-3.56,
5.65,-7.194,3.172,-3.58,
5.66,-7.281,3.094,-3.601,
5.67,-7.373,3.014,-3.621,
5.68,-7.465,2.933,-3.639,
5.69,-7.551,2.849,-3.655,
5.7,-7.627,2.764,-3.671,
5.71,-7.691,2.678,-3.69,
5.72,-7.742,2.594,-3.714,
5.73,-7.781,2.514,-3.745,
5.74,-7.811,2.439,-3.785,
5.75,-7.833,2.37,-3.833,
5.76,-7.851,2.308,-3.887,
5.77,-7.867,2.252,-3.945,
5.78,-7.882,2.201,-4.007,
5.79,-7.898,2.153,-4.07,
5.8,-7.916,2.108,-4.134,
5.81,-7.935,2.065,-4.2,
5.82,-7.957,2.023,-4.266,
5.83,-7.982,1.982,-4.333,
5.84,-8.012,1.941,-4.401,
5.85,-8.045,1.902,-4.468,
5.86,-8.08,1.864,-4.535,
5.87,-8.116,1.826,-4.599,
5.88,-8.15,1.789,-4.663,
5.89,-8.18,1.753,-4.726,
5.9,-8.205,1.719,-4.79,
5.91,-8.225,1.689,-4.854,
5.92,-8.238,1.665,-4.92,
5.93,-8.246,1.65,-4.987,
5.94,-8.25,1.646,-5.053,
5.95,-8.252,1.653,-5.116,
5.96,-8.254,1.673,-5.174,
5.97,-8.254,1.704,-5.226,
5.98,-8.251,1.746,-5.273,
5.99,-8.241,1.797,-5.314,
6,-8.223,1.854,-5.35,
6.01,-8.198,1.912,-5.381,
6.02,-8.168,1.967,-5.405,
6.03,-8.137,2.015,-5.421,
6.04,-8.108,2.056,-5.428,
6.05,-8.084,2.093,-5.422,
6.06,-8.064,2.127,-5.403,
6.07,-8.05,2.162,-5.371,
6.08,-8.041,2.2,-5.327,
6.09,-8.037,2.243,-5.272,
6.1,-8.035,2.29,-5.21,
6.11,-8.034,2.34,-5.142,
6.12,-8.032,2.392,-5.071,
6.13,-8.025,2.443,-4.995,
6.14,-8.015,2.491,-4.917,
6.15,-8.002,2.533,-4.837,
6.16,-7.99,2.568,-4.757,
6.17,-7.982,2.596,-4.679,
6.18,-7.982,2.616,-4.603,
6.19,-7.993,2.628,-4.53,
6.2,-8.014,2.63,-4.464,
6.21,-8.045,2.623,-4.409,
6.22,-8.084,2.608,-4.37,
6.23,-8.128,2.587,-4.352,
6.24,-8.172,2.567,-4.36,
6.25,-8.212,2.551,-4.39,
6.26,-8.246,2.544,-4.436,
6.27,-8.274,2.548,-4.488,
6.28,-8.297,2.561,-4.535,
6.29,-8.315,2.581,-4.568,
6.3,-8.33,2.604,-4.581,
6.31,-8.345,2.628,-4.571,
6.32,-8.358,2.651,-4.541,
6.33,-8.368,2.671,-4.497,
6.34,-8.372,2.683,-4.452,
6.35,-8.37,2.683,-4.415,
6.36,-8.362,2.668,-4.398,
6.37,-8.351,2.637,-4.407,
6.38,-8.342,2.588,-4.445,
6.39,-8.338,2.526,-4.513,
6.4,-8.341,2.453,-4.607,
6.41,-8.351,2.377,-4.722,
6.42,-8.367,2.305,-4.85,
6.43,-8.389,2.242,-4.983,
6.44,-8.414,2.193,-5.112,
6.45,-8.441,2.16,-5.231,
6.46,-8.473,2.142,-5.337,
6.47,-8.512,2.136,-5.427,
6.48,-8.561,2.141,-5.502,
6.49,-8.622,2.155,-5.563,
6.5,-8.694,2.176,-5.612,
6.51,-8.773,2.204,-5.651,
6.52,-8.85,2.234,-5.682,
6.53,-8.916,2.262,-5.71,
6.54,-8.966,2.283,-5.735,
6.55,-8.997,2.29,-5.759,
6.56,-9.011,2.28,-5.781,
6.57,-9.014,2.251,-5.802,
6.58,-9.014,2.205,-5.819,
6.59,-9.015,2.146,-5.833,
6.6,-9.026,2.077,-5.843,
6.61,-9.05,2.003,-5.851,
6.62,-9.09,1.925,-5.856,
6.63,-9.148,1.846,-5.858,
6.64,-9.217,1.768,-5.854,
6.65,-9.286,1.692,-5.843,
6.66,-9.342,1.62,-5.825,
6.67,-9.374,1.556,-5.799,
6.68,-9.374,1.499,-5.763,
6.69,-9.338,1.451,-5.716,
6.7,-9.271,1.409,-5.657,
6.71,-9.178,1.372,-5.586,
6.72,-9.07,1.336,-5.509,
6.73,-8.959,1.301,-5.43,
6.74,-8.856,1.268,-5.357,
6.75,-8.772,1.238,-5.295,
6.76,-8.711,1.215,-5.244,
6.77,-8.673,1.199,-5.203,
6.78,-8.654,1.188,-5.166,
6.79,-8.646,1.182,-5.129,
6.8,-8.644,1.175,-5.089,
6.81,-8.64,1.166,-5.047,
6.82,-8.633,1.156,-5.003,
6.83,-8.621,1.145,-4.959,
6.84,-8.606,1.135,-4.918,
6.85,-8.591,1.128,-4.878,
6.86,-8.577,1.126,-4.838,
6.87,-8.567,1.127,-4.796,
6.88,-8.564,1.134,-4.754,
6.89,-8.567,1.145,-4.71,
6.9,-8.576,1.161,-4.668,
6.91,-8.591,1.181,-4.629,
6.92,-8.61,1.205,-4.595,
6.93,-8.632,1.23,-4.569,
6.94,-8.653,1.257,-4.549,
6.95,-8.673,1.282,-4.536,
6.96,-8.691,1.305,-4.528,
6.97,-8.706,1.326,-4.524,
6.98,-8.721,1.342,-4.523,
6.99,-8.736,1.355,-4.525,
7,-8.753,1.362,-4.53,
7.01,-8.775,1.366,-4.537,
7.02,-8.801,1.367,-4.547,
7.03,-8.832,1.368,-4.558,
7.04,-8.868,1.37,-4.57,
7.05,-8.904,1.375,-4.581,
7.06,-8.941,1.384,-4.589,
7.07,-8.975,1.395,-4.593,
7.08,-9.005,1.409,-4.594,
7.09,-9.032,1.425,-4.591,
7.1,-9.058,1.443,-4.586,
7.11,-9.083,1.461,-4.579,
7.12,-9.11,1.48,-4.571,
7.13,-9.139,1.498,-4.563,
7.14,-9.17,1.516,-4.554,
7.15,-9.202,1.533,-4.545,
7.16,-9.234,1.549,-4.536,
7.17,-9.263,1.565,-4.529,
7.18,-9.291,1.58,-4.522,
7.19,-9.316,1.595,-4.517,
7.2,-9.339,1.61,-4.513,
7.21,-9.358,1.624,-4.511,
7.22,-9.375,1.638,-4.51,
7.23,-9.387,1.652,-4.511,
7.24,-9.393,1.666,-4.513,
7.25,-9.393,1.679,-4.515,
7.26,-9.387,1.691,-4.516,
7.27,-9.378,1.703,-4.517,
7.28,-9.368,1.713,-4.516,
7.29,-9.361,1.721,-4.516,
7.3,-9.358,1.727,-4.517,
7.31,-9.363,1.73,-4.519,
7.32,-9.374,1.731,-4.522,
7.33,-9.39,1.73,-4.524,
7.34,-9.411,1.729,-4.524,
7.35,-9.432,1.728,-4.522,
7.36,-9.451,1.728,-4.516,
7.37,-9.467,1.727,-4.507,
7.38,-9.478,1.725,-4.496,
7.39,-9.484,1.722,-4.484,
7.4,-9.484,1.716,-4.473,
7.41,-9.481,1.708,-4.462,
7.42,-9.474,1.698,-4.452,
7.43,-9.464,1.685,-4.443,
7.44,-9.451,1.67,-4.433,
7.45,-9.433,1.653,-4.423,
7.46,-9.411,1.633,-4.412,
7.47,-9.383,1.612,-4.4,
7.48,-9.348,1.589,-4.386,
7.49,-9.307,1.563,-4.372,
7.5,-9.26,1.535,-4.357,
7.51,-9.207,1.506,-4.343,
7.52,-9.151,1.476,-4.33,
7.53,-9.092,1.447,-4.318,
7.54,-9.034,1.419,-4.307,
7.55,-8.978,1.393,-4.296,
7.56,-8.926,1.371,-4.286,
7.57,-8.88,1.351,-4.275,
7.58,-8.84,1.333,-4.264,
7.59,-8.808,1.317,-4.253,
7.6,-8.782,1.304,-4.244,
