Time[s],Anterior(+)/posterior(-) tilt,Lateral tilt left(-)/right(+),Rotation left(+)/right(-)
0,10.884,-5.459,-0.186
0.033,11.642,-5.407,-0.257
0.067,12.518,-5.34,-0.344
0.1,13.519,-5.309,-0.267
0.133,14.621,-5.297,-0.107
0.167,15.85,-5.269,0.063
0.2,17.279,-5.212,0.145
0.233,18.723,-5.086,0.115
0.267,20.131,-4.897,0.048
0.3,21.695,-4.685,0.033
0.333,23.166,-4.503,0.073
0.367,24.559,-4.301,0.121
0.4,25.631,-4.142,0.256
0.433,26.387,-4.04,0.436
0.467,26.994,-3.993,0.578
0.5,27.564,-4.007,0.713
0.533,28.074,-4.069,0.868
0.567,28.582,-4.141,1.021
0.6,29.137,-4.167,1.059
0.633,29.645,-4.116,1.007
0.667,30.163,-4.034,1.029
0.7,30.612,-3.896,1.103
0.733,30.826,-3.686,1.143
0.767,30.922,-3.504,1.195
0.8,31.226,-3.334,1.151
0.833,31.45,-3.147,1.034
0.867,31.431,-3.004,1.097
0.9,31.522,-2.921,1.195
0.933,31.821,-2.832,1.285
0.967,32.028,-2.694,1.308
1,32.287,-2.517,1.253
1.033,32.719,-2.299,1.191
1.067,33.112,-2.11,1.241
1.1,33.458,-1.95,1.325
1.133,33.708,-1.82,1.381
1.167,33.941,-1.718,1.356
1.2,34.214,-1.631,1.369
1.233,34.399,-1.56,1.375
1.267,34.508,-1.493,1.31
1.3,34.603,-1.425,1.235
1.333,34.643,-1.352,1.149
1.367,34.63,-1.274,1.07
1.4,34.602,-1.205,0.984
1.433,34.61,-1.165,0.891
1.467,34.628,-1.164,0.815
1.5,34.633,-1.161,0.711
1.533,34.589,-1.169,0.516
1.567,34.607,-1.162,0.346
1.6,34.717,-1.156,0.204
1.633,34.82,-1.158,0.126
1.667,34.842,-1.161,0.013
1.7,34.937,-1.143,-0.014
1.733,34.96,-1.105,-0.075
1.767,34.987,-1.064,-0.134
1.8,35.053,-1.041,-0.163
1.833,35.1,-1.021,-0.227
1.867,35.15,-1.001,-0.309
1.9,35.143,-0.994,-0.407
1.933,35.084,-0.975,-0.461
1.967,35.146,-0.94,-0.485
2,35.222,-0.916,-0.564
2.033,35.291,-0.908,-0.656
2.067,35.379,-0.891,-0.727
2.1,35.469,-0.872,-0.804
2.133,35.518,-0.853,-0.855
2.167,35.553,-0.846,-0.881
2.2,35.571,-0.845,-0.895
2.233,35.602,-0.846,-0.912
2.267,35.641,-0.843,-0.895
2.3,35.655,-0.847,-0.861
2.333,35.655,-0.856,-0.849
2.367,35.651,-0.852,-0.851
2.4,35.706,-0.832,-0.865
2.433,35.681,-0.804,-0.808
2.467,35.708,-0.781,-0.866
2.5,35.814,-0.735,-0.933
2.533,35.866,-0.68,-1.012
2.567,35.835,-0.62,-1.131
2.6,35.753,-0.62,-1.208
2.633,35.599,-0.681,-1.278
2.667,35.311,-0.768,-1.346
2.7,34.907,-0.869,-1.403
2.733,34.222,-1.013,-1.427
2.767,33.338,-1.166,-1.423
2.8,32.376,-1.312,-1.441
2.833,31.352,-1.505,-1.484
2.867,30.365,-1.738,-1.461
2.9,29.373,-1.999,-1.463
2.933,28.229,-2.3,-1.521
2.967,27.084,-2.642,-1.519
3,25.963,-3.017,-1.535
3.033,24.74,-3.381,-1.575
3.067,23.452,-3.729,-1.612
3.1,22.196,-4.015,-1.759
3.133,21.01,-4.271,-1.967
3.167,19.872,-4.53,-2.165
3.2,18.81,-4.735,-2.49
3.233,17.718,-4.895,-2.77
3.267,16.627,-4.999,-3.02
3.3,15.612,-5.063,-3.035
3.333,14.438,-5.073,-3.025
3.367,13.326,-5.047,-2.979
3.4,12.349,-5.055,-2.797
3.433,11.453,-5.067,-2.624
3.467,10.589,-5.029,-2.545
3.5,9.616,-4.983,-2.479
3.533,8.701,-4.987,-2.38
3.567,7.919,-5.052,-2.287
3.6,7.22,-5.087,-2.235
3.633,6.68,-5.05,-2.186
3.667,6.201,-4.979,-2.2
3.7,5.768,-4.909,-2.28
3.733,5.487,-4.811,-2.39
3.767,5.304,-4.67,-2.601
3.8,5.204,-4.514,-2.817
3.833,5.081,-4.332,-2.973
3.867,4.899,-4.144,-3.101
3.9,4.664,-3.983,-3.221
3.933,4.48,-3.866,-3.272
3.967,4.356,-3.787,-3.253
4,4.358,-3.714,-3.333
4.033,4.349,-3.652,-3.393
4.067,4.239,-3.607,-3.393
4.1,4.086,-3.561,-3.391
4.133,4.003,-3.536,-3.362
4.167,3.994,-3.552,-3.344
4.2,4.01,-3.561,-3.33
4.233,4.007,-3.551,-3.323
4.267,3.943,-3.533,-3.371
4.3,3.866,-3.529,-3.421
4.333,3.917,-3.543,-3.422
4.367,3.983,-3.535,-3.433
4.4,4.098,-3.514,-3.44
4.433,4.247,-3.497,-3.443
4.467,4.341,-3.477,-3.455
4.5,4.381,-3.436,-3.469
4.533,4.406,-3.382,-3.488
4.567,4.463,-3.315,-3.54
4.6,4.556,-3.248,-3.602
4.633,4.647,-3.199,-3.648
4.667,4.721,-3.165,-3.693
4.7,4.799,-3.156,-3.692
4.733,4.899,-3.155,-3.668
4.767,5.016,-3.163,-3.688
4.8,5.054,-3.195,-3.69
4.833,5.097,-3.273,-3.611
4.867,5.085,-3.372,-3.548
4.9,5.075,-3.474,-3.469
4.933,5.088,-3.558,-3.399
4.967,5.118,-3.612,-3.355
5,5.179,-3.645,-3.319
5.033,5.211,-3.677,-3.265
5.067,5.227,-3.704,-3.208
5.1,5.265,-3.733,-3.143
5.133,5.374,-3.752,-3.127
5.167,5.514,-3.772,-3.093
5.2,5.684,-3.802,-3.048
5.233,5.863,-3.829,-3.008
5.267,6.107,-3.847,-2.957
5.3,6.438,-3.861,-2.926
5.333,6.926,-3.857,-2.935
5.367,7.552,-3.858,-2.958
5.4,8.331,-3.872,-2.964
5.433,9.274,-3.894,-3.004
5.467,10.343,-3.881,-3.106
5.5,11.62,-3.821,-3.221
5.533,12.949,-3.741,-3.239
5.567,14.371,-3.648,-3.307
5.6,15.803,-3.52,-3.348
5.633,17.236,-3.413,-3.228
5.667,18.543,-3.238,-3.185
5.7,19.761,-2.998,-3.176
5.733,20.988,-2.775,-3.221
5.767,22.335,-2.597,-3.236
5.8,23.959,-2.471,-3.179
5.833,25.518,-2.394,-3.118
5.867,26.916,-2.323,-2.999
5.9,28.121,-2.17,-2.932
5.933,29.052,-1.961,-2.859
5.967,29.786,-1.74,-2.765
6,30.265,-1.48,-2.729
6.033,30.822,-1.22,-2.692
6.067,31.727,-1.056,-2.541
6.1,32.516,-0.922,-2.468
6.133,33.094,-0.76,-2.459
6.167,33.564,-0.544,-2.49
6.2,33.825,-0.321,-2.508
6.233,34.01,-0.133,-2.505
6.267,34.183,0.034,-2.526
6.3,34.377,0.198,-2.57
6.333,34.438,0.392,-2.489
6.367,34.653,0.589,-2.408
6.4,34.954,0.791,-2.262
6.433,35.392,1,-2.135
6.467,35.796,1.23,-2.076
6.5,36.157,1.395,-2.016
6.533,36.501,1.495,-1.973
6.567,36.787,1.564,-1.913
6.6,37.062,1.598,-1.85
6.633,37.315,1.604,-1.826
6.667,37.534,1.587,-1.803
6.7,37.777,1.583,-1.81
6.733,37.991,1.63,-1.897
6.767,38.221,1.676,-1.958
6.8,38.43,1.699,-1.949
6.833,38.6,1.692,-1.896
6.867,38.736,1.667,-1.832
6.9,38.856,1.632,-1.795
6.933,38.924,1.594,-1.806
6.967,38.942,1.557,-1.901
7,38.948,1.526,-2.044
7.033,38.938,1.504,-2.177
7.067,38.923,1.479,-2.31
7.1,38.886,1.44,-2.456
7.133,38.687,1.412,-2.518
7.167,38.538,1.358,-2.617
7.2,38.423,1.328,-2.627
7.233,38.344,1.316,-2.607
7.267,38.244,1.319,-2.633
7.3,38.163,1.343,-2.658
7.333,38.059,1.375,-2.655
7.367,37.951,1.41,-2.617
7.4,37.823,1.427,-2.565
7.433,37.645,1.44,-2.536
7.467,37.509,1.459,-2.518
7.5,37.332,1.474,-2.513
7.533,37.134,1.491,-2.53
7.567,36.911,1.515,-2.527
7.6,36.632,1.541,-2.51
7.633,36.302,1.529,-2.497
7.667,35.985,1.469,-2.575
7.7,35.618,1.347,-2.852
7.733,35.125,1.149,-3.121
7.767,34.682,0.932,-3.411
7.8,34.172,0.706,-3.706
7.833,33.532,0.453,-3.849
7.867,32.79,0.198,-3.884
7.9,31.931,-0.061,-3.756
7.933,31.178,-0.36,-3.647
7.967,30.001,-0.683,-3.501
8,28.505,-1.005,-3.274
8.033,27.067,-1.356,-3.143
8.067,25.967,-1.719,-3.186
8.1,24.719,-2.16,-3.271
8.133,23.471,-2.642,-3.276
8.167,22.182,-3.124,-3.264
8.2,20.887,-3.578,-3.272
8.233,19.585,-4.009,-3.257
8.267,18.37,-4.406,-3.345
8.3,17.077,-4.79,-3.513
8.333,15.776,-5.148,-3.65
8.367,14.54,-5.486,-3.74
8.4,13.436,-5.775,-3.925
8.433,12.325,-6.032,-4.097
8.467,11.171,-6.295,-4.192
8.5,10.078,-6.497,-4.299
8.533,9.075,-6.606,-4.439
8.567,8.177,-6.688,-4.609
8.6,7.428,-6.78,-4.805
8.633,6.702,-6.851,-4.92
8.667,5.92,-6.93,-4.89
8.7,5.206,-6.979,-4.993
8.733,4.681,-7.003,-5.065
8.767,4.179,-7.031,-5.001
8.8,3.676,-7.062,-4.96
8.833,3.247,-7.09,-4.916
8.867,2.875,-7.057,-4.914
8.9,2.582,-6.902,-4.918
8.933,2.348,-6.665,-4.927
8.967,2.217,-6.42,-4.935
9,2.21,-6.214,-4.889
9.033,2.17,-6.071,-4.833
9.067,2.102,-5.969,-4.816
9.1,1.993,-5.906,-4.789
9.133,1.912,-5.876,-4.762
9.167,1.845,-5.861,-4.752
9.2,1.801,-5.848,-4.747
9.233,1.733,-5.833,-4.734
9.267,1.636,-5.796,-4.696
9.3,1.568,-5.721,-4.685
9.333,1.581,-5.64,-4.693
9.367,1.648,-5.575,-4.665
9.4,1.696,-5.516,-4.626
9.433,1.651,-5.48,-4.515
9.467,1.656,-5.426,-4.519
9.5,1.755,-5.356,-4.551
9.533,1.865,-5.291,-4.541
9.567,1.934,-5.222,-4.57
9.6,2.035,-5.186,-4.56
9.633,2.141,-5.183,-4.506
9.667,2.217,-5.175,-4.484
9.7,2.302,-5.181,-4.463
9.733,2.366,-5.2,-4.433
9.767,2.394,-5.197,-4.399
9.8,2.397,-5.177,-4.384
9.833,2.399,-5.154,-4.375
9.867,2.411,-5.134,-4.325
9.9,2.46,-5.11,-4.263
9.933,2.484,-5.086,-4.197
